ID,Count
18288,495.20819296448
18289,465.879854828191
18290,437.730102573491
18291,419.211715902454
18292,402.318268574677
18293,386.485777649049
18294,371.581318163782
18295,357.528476636163
18296,344.042245031068
18297,331.095925776918
18298,318.656060073124
18299,306.699231426191
18300,295.224453082158
18301,284.242221921029
18302,273.775492250034
18303,263.857956763757
18304,254.531594627818
18305,245.844197372539
18306,237.8459415219
18307,230.585441465965
18308,224.105377905065
18309,218.438036067976
18310,213.60123521288
18311,209.595151705349
18312,206.40050127335
18313,203.978373237667
18314,202.27175838518
18315,201.208541753632
18316,200.705517624719
18317,200.672883780445
18318,201.018696688139
18319,201.652887446095
18320,202.490595259584
18321,203.454720063817
18322,204.477699560609
18323,205.50257367908
18324,206.483422698864
18325,207.38527016574
18326,208.183541107355
18327,208.863166276625
18328,209.417424906328
18329,209.846619381549
18330,210.156672511429
18331,210.357730120411
18332,210.462838647837
18333,210.486750915797
18334,210.444895422871
18335,210.352527577911
18336,210.224066757767
18337,210.072611764928
18338,209.909619317341
18339,209.744725303669
18340,209.585686127139
18341,209.438416927757
18342,209.30710425929
18343,209.194372452608
18344,209.101485081068
18345,209.028565412626
18346,208.974822315161
18347,208.938770654088
18348,208.918437695891
18349,208.911549342094
18350,208.915692116396
18351,208.928448678667
18352,208.947506220768
18353,208.97073840064
18354,208.996262492985
18355,209.022474187602
18356,209.048062968535
18357,209.072011283952
18358,209.09358079835
18359,209.112288938417
18360,209.127878736093
18361,209.140284670894
18362,209.149596850272
18363,209.156025470337
18364,209.159867094527
18365,209.161473894871
18366,209.161226635224
18367,209.15951184933
18368,209.156703385966
18369,209.153148262167
18370,209.149156584105
18371,209.144995161583
18372,209.140884352597
18373,209.136997623956
18374,209.13346329683
18375,209.130367956235
18376,209.127761034812
18377,209.125660128162
18378,209.124056656064
18379,209.122921546646
18380,209.122210684986
18381,209.121869930488
18382,209.121839566236
18383,209.122058096617
18384,209.122465355491
18385,209.123004925659
18386,209.123625900936
18387,209.124284045206
18388,209.124942418723
18389,209.125571551545
18390,209.126149248026
18391,209.126660105788
18392,209.127094828506
18393,209.127449404932
18394,209.12772421797
18395,209.127923137755
18396,209.128052642536
18397,209.128121001
18398,209.128137540169
18399,209.128112014236
18400,209.128054082136
18401,209.127972895149
18402,209.127876790722
18403,209.127773084653
18404,209.127667951024
18405,209.127566377467
18406,209.127472182517
18407,209.127388081704
18408,209.127315789544
18409,209.127256145625
18410,209.127209254252
18411,209.127174628687
18412,209.127151332579
18413,209.12713811286
18414,209.127133519885
18415,209.127136012015
18416,209.127144043152
18417,209.127156132734
18418,209.127170918636
18419,209.127187194055
18420,209.127203929999
18421,209.127220285261
18422,209.127235605993
18423,209.127249416983
18424,209.12726140672
18425,209.12727140817
18426,209.12727937698
18427,209.12728536862
18428,209.127289515692
18429,209.127292006378
18430,209.127293064784
18431,209.127292933641
18432,209.127291859693
18433,209.127290081853
18434,209.127287822111
18435,209.127285279044
18436,209.127282623675
18437,209.127279997419
18438,209.12727751175
18439,209.127275249288
18440,209.127273265945
18441,209.127271593839
18442,209.127270244673
18443,209.127269213347
18444,209.127268481592
18445,209.127268021447
18446,209.127267798476
18447,209.127267774617
18448,209.127267910616
18449,209.127268168025
18450,209.127268510753
18451,209.127268906207
18452,209.127269326037
18453,209.127269746544
18454,209.127270148797
18455,209.127270518516
18456,209.127270845767
18457,209.127271124522
18458,209.127271352146
18459,209.127271528819
18460,209.127271656962
18461,209.127271740677
18462,209.127271785218
18463,209.127271796527
18464,209.127271780829
18465,209.127271744294
18466,209.127271692774
18467,209.127271631606
18468,209.127271565478
18469,209.127271498349
18470,209.127271433422
18471,209.127271373152
18472,209.127271319292
18473,209.127271272948
18474,209.127271234671
18475,209.127271204538
18476,209.127271182246
18477,209.127271167203
18478,209.127271158615
18479,209.127271155557
18480,209.127271157047
18481,209.127271162097
18482,209.12727116976
18483,209.127271179165
18484,209.127271189539
18485,209.127271200222
18486,209.127271210673
18487,209.127271220474
18488,209.127271229316
18489,209.127271237001
18490,209.127271243417
18491,209.127271248536
18492,209.127271252391
18493,209.127271255067
18494,209.127271256681
18495,209.127271257378
18496,209.127271257311
18497,209.127271256639
18498,209.127271255513
18499,209.127271254077
18500,209.127271252457
18501,209.127271250762
18502,209.127271249085
18503,209.127271247495
18504,209.127271246047
18505,209.127271244776
18506,209.127271243703
18507,209.127271242837
18508,209.127271242174
18509,209.127271241702
18510,209.127271241405
18511,209.127271241259
18512,209.127271241241
18513,209.127271241325
18514,209.127271241488
18515,209.127271241705
18516,209.127271241957
18517,209.127271242225
18518,209.127271242493
18519,209.127271242751
18520,209.127271242987
18521,209.127271243197
18522,209.127271243376
18523,209.127271243522
18524,209.127271243636
18525,209.127271243718
18526,209.127271243773
18527,209.127271243802
18528,209.127271243809
18529,209.1272712438
18530,209.127271243776
18531,209.127271243743
18532,209.127271243704
18533,209.127271243662
18534,209.127271243619
18535,209.127271243577
18536,209.127271243539
18537,209.127271243504
18538,209.127271243475
18539,209.12727124345
18540,209.127271243431
18541,209.127271243417
18542,209.127271243408
18543,209.127271243402
18544,209.1272712434
18545,209.127271243401
18546,209.127271243404
18547,209.127271243409
18548,209.127271243415
18549,209.127271243421
18550,209.127271243428
18551,209.127271243435
18552,209.127271243442
18553,209.127271243447
18554,209.127271243452
18555,209.127271243456
18556,209.127271243459
18557,209.127271243462
18558,209.127271243463
18559,209.127271243464
18560,209.127271243465
18561,209.127271243465
18562,209.127271243464
18563,209.127271243463
18564,209.127271243463
18565,209.127271243462
18566,209.127271243461
18567,209.127271243459
18568,209.127271243458
18569,209.127271243457
18570,209.127271243456
18571,209.127271243456
18572,209.127271243455
18573,209.127271243455
18574,209.127271243455
18575,209.127271243455
18576,209.127271243455
18577,209.127271243455
18578,209.127271243455
18579,209.127271243455
18580,209.127271243455
18581,209.127271243455
18582,209.127271243455
18583,209.127271243456
18584,209.127271243456
18585,209.127271243456
18586,209.127271243456
18587,209.127271243456
18588,209.127271243456
18589,209.127271243456
18590,209.127271243457
18591,209.127271243457
18592,209.127271243457
18593,209.127271243457
18594,209.127271243457
18595,209.127271243457
18596,209.127271243457
18597,209.127271243457
18598,209.127271243457
18599,209.127271243457
18600,209.127271243457
18601,209.127271243457
18602,209.127271243457
18603,209.127271243457
18604,209.127271243457
18605,209.127271243457
18606,209.127271243457
18607,209.127271243457
18608,209.127271243457
18609,209.127271243457
18610,209.127271243457
18611,209.127271243457
18612,209.127271243457
18613,209.127271243457
18614,209.127271243457
18615,209.127271243457
18616,209.127271243457
18617,209.127271243457
18618,209.127271243457
18619,209.127271243457
18620,209.127271243457
18621,209.127271243457
18622,209.127271243457
18623,209.127271243457
18624,209.127271243457
18625,209.127271243457
18626,209.127271243457
18627,209.127271243457
18628,209.127271243457
18629,209.127271243457
18630,209.127271243457
18631,209.127271243457
18632,209.127271243457
18633,209.127271243457
18634,209.127271243457
18635,209.127271243457
18636,209.127271243457
18637,209.127271243457
18638,209.127271243457
18639,209.127271243457
18640,209.127271243457
18641,209.127271243457
18642,209.127271243457
18643,209.127271243457
18644,209.127271243457
18645,209.127271243457
18646,209.127271243457
18647,209.127271243457
18648,209.127271243457
18649,209.127271243457
18650,209.127271243457
18651,209.127271243457
18652,209.127271243457
18653,209.127271243457
18654,209.127271243457
18655,209.127271243457
18656,209.127271243457
18657,209.127271243457
18658,209.127271243457
18659,209.127271243457
18660,209.127271243457
18661,209.127271243457
18662,209.127271243457
18663,209.127271243457
18664,209.127271243457
18665,209.127271243457
18666,209.127271243457
18667,209.127271243457
18668,209.127271243457
18669,209.127271243457
18670,209.127271243457
18671,209.127271243457
18672,209.127271243457
18673,209.127271243457
18674,209.127271243457
18675,209.127271243457
18676,209.127271243457
18677,209.127271243457
18678,209.127271243457
18679,209.127271243457
18680,209.127271243457
18681,209.127271243457
18682,209.127271243457
18683,209.127271243457
18684,209.127271243457
18685,209.127271243457
18686,209.127271243457
18687,209.127271243457
18688,209.127271243457
18689,209.127271243457
18690,209.127271243457
18691,209.127271243457
18692,209.127271243457
18693,209.127271243457
18694,209.127271243457
18695,209.127271243457
18696,209.127271243457
18697,209.127271243457
18698,209.127271243457
18699,209.127271243457
18700,209.127271243457
18701,209.127271243457
18702,209.127271243457
18703,209.127271243457
18704,209.127271243457
18705,209.127271243457
18706,209.127271243457
18707,209.127271243457
18708,209.127271243457
18709,209.127271243457
18710,209.127271243457
18711,209.127271243457
18712,209.127271243457
18713,209.127271243457
18714,209.127271243457
18715,209.127271243457
18716,209.127271243457
18717,209.127271243457
18718,209.127271243457
18719,209.127271243457
18720,209.127271243457
18721,209.127271243457
18722,209.127271243457
18723,209.127271243457
18724,209.127271243457
18725,209.127271243457
18726,209.127271243457
18727,209.127271243457
18728,209.127271243457
18729,209.127271243457
18730,209.127271243457
18731,209.127271243457
18732,209.127271243457
18733,209.127271243457
18734,209.127271243457
18735,209.127271243457
18736,209.127271243457
18737,209.127271243457
18738,209.127271243457
18739,209.127271243457
18740,209.127271243457
18741,209.127271243457
18742,209.127271243457
18743,209.127271243457
18744,209.127271243457
18745,209.127271243457
18746,209.127271243457
18747,209.127271243457
18748,209.127271243457
18749,209.127271243457
18750,209.127271243457
18751,209.127271243457
18752,209.127271243457
18753,209.127271243457
18754,209.127271243457
18755,209.127271243457
18756,209.127271243457
18757,209.127271243457
18758,209.127271243457
18759,209.127271243457
18760,209.127271243457
18761,209.127271243457
18762,209.127271243457
18763,209.127271243457
18764,209.127271243457
18765,209.127271243457
18766,209.127271243457
18767,209.127271243457
18768,209.127271243457
18769,209.127271243457
18770,209.127271243457
18771,209.127271243457
18772,209.127271243457
18773,209.127271243457
18774,209.127271243457
18775,209.127271243457
18776,209.127271243457
18777,209.127271243457
18778,209.127271243457
18779,209.127271243457
18780,209.127271243457
18781,209.127271243457
18782,209.127271243457
18783,209.127271243457
18784,209.127271243457
18785,209.127271243457
18786,209.127271243457
18787,209.127271243457
18788,209.127271243457
18789,209.127271243457
18790,209.127271243457
18791,209.127271243457
18792,209.127271243457
18793,209.127271243457
18794,209.127271243457
18795,209.127271243457
18796,209.127271243457
18797,209.127271243457
18798,209.127271243457
18799,209.127271243457
18800,209.127271243457
18801,209.127271243457
18802,209.127271243457
18803,209.127271243457
18804,209.127271243457
18805,209.127271243457
18806,209.127271243457
18807,209.127271243457
18808,209.127271243457
18809,209.127271243457
18810,209.127271243457
18811,209.127271243457
18812,209.127271243457
18813,209.127271243457
18814,209.127271243457
18815,209.127271243457
18816,209.127271243457
18817,209.127271243457
18818,209.127271243457
18819,209.127271243457
18820,209.127271243457
18821,209.127271243457
18822,209.127271243457
18823,209.127271243457
18824,209.127271243457
18825,209.127271243457
18826,209.127271243457
18827,209.127271243457
18828,209.127271243457
18829,209.127271243457
18830,209.127271243457
18831,209.127271243457
18832,209.127271243457
18833,209.127271243457
18834,209.127271243457
18835,209.127271243457
18836,209.127271243457
18837,209.127271243457
18838,209.127271243457
18839,209.127271243457
18840,209.127271243457
18841,209.127271243457
18842,209.127271243457
18843,209.127271243457
18844,209.127271243457
18845,209.127271243457
18846,209.127271243457
18847,209.127271243457
18848,209.127271243457
18849,209.127271243457
18850,209.127271243457
18851,209.127271243457
18852,209.127271243457
18853,209.127271243457
18854,209.127271243457
18855,209.127271243457
18856,209.127271243457
18857,209.127271243457
18858,209.127271243457
18859,209.127271243457
18860,209.127271243457
18861,209.127271243457
18862,209.127271243457
18863,209.127271243457
18864,209.127271243457
18865,209.127271243457
18866,209.127271243457
18867,209.127271243457
18868,209.127271243457
18869,209.127271243457
18870,209.127271243457
18871,209.127271243457
18872,209.127271243457
18873,209.127271243457
18874,209.127271243457
18875,209.127271243457
18876,209.127271243457
18877,209.127271243457
18878,209.127271243457
18879,209.127271243457
18880,209.127271243457
18881,209.127271243457
18882,209.127271243457
18883,209.127271243457
18884,209.127271243457
18885,209.127271243457
18886,209.127271243457
18887,209.127271243457
18888,209.127271243457
18889,209.127271243457
18890,209.127271243457
18891,209.127271243457
18892,209.127271243457
18893,209.127271243457
18894,209.127271243457
18895,209.127271243457
18896,209.127271243457
18897,209.127271243457
18898,209.127271243457
18899,209.127271243457
18900,209.127271243457
18901,209.127271243457
18902,209.127271243457
18903,209.127271243457
18904,209.127271243457
18905,209.127271243457
18906,209.127271243457
18907,209.127271243457
18908,209.127271243457
18909,209.127271243457
18910,209.127271243457
18911,209.127271243457
18912,209.127271243457
18913,209.127271243457
18914,209.127271243457
18915,209.127271243457
18916,209.127271243457
18917,209.127271243457
18918,209.127271243457
18919,209.127271243457
18920,209.127271243457
18921,209.127271243457
18922,209.127271243457
18923,209.127271243457
18924,209.127271243457
18925,209.127271243457
18926,209.127271243457
18927,209.127271243457
18928,209.127271243457
18929,209.127271243457
18930,209.127271243457
18931,209.127271243457
18932,209.127271243457
18933,209.127271243457
18934,209.127271243457
18935,209.127271243457
18936,209.127271243457
18937,209.127271243457
18938,209.127271243457
18939,209.127271243457
18940,209.127271243457
18941,209.127271243457
18942,209.127271243457
18943,209.127271243457
18944,209.127271243457
18945,209.127271243457
18946,209.127271243457
18947,209.127271243457
18948,209.127271243457
18949,209.127271243457
18950,209.127271243457
18951,209.127271243457
18952,209.127271243457
18953,209.127271243457
18954,209.127271243457
18955,209.127271243457
18956,209.127271243457
18957,209.127271243457
18958,209.127271243457
18959,209.127271243457
18960,209.127271243457
18961,209.127271243457
18962,209.127271243457
18963,209.127271243457
18964,209.127271243457
18965,209.127271243457
18966,209.127271243457
18967,209.127271243457
18968,209.127271243457
18969,209.127271243457
18970,209.127271243457
18971,209.127271243457
18972,209.127271243457
18973,209.127271243457
18974,209.127271243457
18975,209.127271243457
18976,209.127271243457
18977,209.127271243457
18978,209.127271243457
18979,209.127271243457
18980,209.127271243457
18981,209.127271243457
18982,209.127271243457
18983,209.127271243457
18984,209.127271243457
18985,209.127271243457
18986,209.127271243457
18987,209.127271243457
18988,209.127271243457
18989,209.127271243457
18990,209.127271243457
18991,209.127271243457
18992,209.127271243457
18993,209.127271243457
18994,209.127271243457
18995,209.127271243457
18996,209.127271243457
18997,209.127271243457
18998,209.127271243457
18999,209.127271243457
19000,209.127271243457
19001,209.127271243457
19002,209.127271243457
19003,209.127271243457
19004,209.127271243457
19005,209.127271243457
19006,209.127271243457
19007,209.127271243457
19008,209.127271243457
19009,209.127271243457
19010,209.127271243457
19011,209.127271243457
19012,209.127271243457
19013,209.127271243457
19014,209.127271243457
19015,209.127271243457
19016,209.127271243457
19017,209.127271243457
19018,209.127271243457
19019,209.127271243457
19020,209.127271243457
19021,209.127271243457
19022,209.127271243457
19023,209.127271243457
19024,209.127271243457
19025,209.127271243457
19026,209.127271243457
19027,209.127271243457
19028,209.127271243457
19029,209.127271243457
19030,209.127271243457
19031,209.127271243457
19032,209.127271243457
19033,209.127271243457
19034,209.127271243457
19035,209.127271243457
19036,209.127271243457
19037,209.127271243457
19038,209.127271243457
19039,209.127271243457
19040,209.127271243457
19041,209.127271243457
19042,209.127271243457
19043,209.127271243457
19044,209.127271243457
19045,209.127271243457
19046,209.127271243457
19047,209.127271243457
19048,209.127271243457
19049,209.127271243457
19050,209.127271243457
19051,209.127271243457
19052,209.127271243457
19053,209.127271243457
19054,209.127271243457
19055,209.127271243457
19056,209.127271243457
19057,209.127271243457
19058,209.127271243457
19059,209.127271243457
19060,209.127271243457
19061,209.127271243457
19062,209.127271243457
19063,209.127271243457
19064,209.127271243457
19065,209.127271243457
19066,209.127271243457
19067,209.127271243457
19068,209.127271243457
19069,209.127271243457
19070,209.127271243457
19071,209.127271243457
19072,209.127271243457
19073,209.127271243457
19074,209.127271243457
19075,209.127271243457
19076,209.127271243457
19077,209.127271243457
19078,209.127271243457
19079,209.127271243457
19080,209.127271243457
19081,209.127271243457
19082,209.127271243457
19083,209.127271243457
19084,209.127271243457
19085,209.127271243457
19086,209.127271243457
19087,209.127271243457
19088,209.127271243457
19089,209.127271243457
19090,209.127271243457
19091,209.127271243457
19092,209.127271243457
19093,209.127271243457
19094,209.127271243457
19095,209.127271243457
19096,209.127271243457
19097,209.127271243457
19098,209.127271243457
19099,209.127271243457
19100,209.127271243457
19101,209.127271243457
19102,209.127271243457
19103,209.127271243457
19104,209.127271243457
19105,209.127271243457
19106,209.127271243457
19107,209.127271243457
19108,209.127271243457
19109,209.127271243457
19110,209.127271243457
19111,209.127271243457
19112,209.127271243457
19113,209.127271243457
19114,209.127271243457
19115,209.127271243457
19116,209.127271243457
19117,209.127271243457
19118,209.127271243457
19119,209.127271243457
19120,209.127271243457
19121,209.127271243457
19122,209.127271243457
19123,209.127271243457
19124,209.127271243457
19125,209.127271243457
19126,209.127271243457
19127,209.127271243457
19128,209.127271243457
19129,209.127271243457
19130,209.127271243457
19131,209.127271243457
19132,209.127271243457
19133,209.127271243457
19134,209.127271243457
19135,209.127271243457
19136,209.127271243457
19137,209.127271243457
19138,209.127271243457
19139,209.127271243457
19140,209.127271243457
19141,209.127271243457
19142,209.127271243457
19143,209.127271243457
19144,209.127271243457
19145,209.127271243457
19146,209.127271243457
19147,209.127271243457
19148,209.127271243457
19149,209.127271243457
19150,209.127271243457
19151,209.127271243457
19152,209.127271243457
19153,209.127271243457
19154,209.127271243457
19155,209.127271243457
19156,209.127271243457
19157,209.127271243457
